Time,Speed,Distance,acceleration,force,torque,rpm
0.09999999,0.01888911,0.000374604,-0.2457663,5.21E-05,23.3478,0.1803777
0.2,0.04231111,0.002962015,-0.2457663,0.00020238,23.3478,0.4040413
0.3,0.06448375,0.008105089,-0.2457663,0.000352541,23.3478,0.6157744
0.4,0.09234536,0.01566864,-0.2457663,0.000481704,23.3478,0.8818332
0.5000001,0.1140366,0.02575612,-0.2457663,0.000626606,23.3478,1.088969
0.6,0.1394117,0.0381551,-0.2457663,0.000726135,23.3478,1.331283
0.6999999,0.1613779,0.05286944,-0.2457663,0.000821933,23.3478,1.541045
0.7999998,0.1884194,0.07007345,-0.2457663,0.000998801,23.3478,1.799273
0.8999997,0.2141898,0.08991268,-0.2457663,0.001155424,23.3478,2.045362
0.9999996,0.2355286,0.1122422,-0.2457663,0.001252607,23.3478,2.249132
1.1,0.263327,0.1369337,-0.2457663,0.001416487,23.3478,2.514587
1.199999,0.2873003,0.1641926,-0.2457663,0.00155859,23.3478,2.743516
1.299999,0.3097113,0.1918206,-0.2457663,0.001716676,23.3478,2.957525
1.399999,0.3371618,0.2011102,-0.2457663,0.0018526,23.3478,3.219658
1.499999,0.3578213,0.2122114,-0.2457663,0.001965959,23.3478,3.416942
1.599999,0.3879704,0.2257628,-0.2457663,0.002128682,23.3478,3.704844
1.699999,0.4122171,0.2416809,-0.2457663,0.00225306,23.3478,3.936383
1.799999,0.4326496,0.2600459,-0.2457663,0.002394189,23.3478,4.131499
1.899999,0.4610918,0.2808127,-0.2457663,0.002522113,23.3478,4.403102
1.999999,0.4832443,0.3040326,-0.2457663,0.002641346,23.3478,4.614643
2.099999,0.5065771,0.3298278,-0.2457663,0.00280919,23.3478,4.837455
2.199999,0.5335947,0.358081,-0.2457663,0.00292564,23.3478,5.095454
2.299999,0.5573639,0.3887223,-0.2457663,0.003048614,23.3478,5.322433
2.399998,0.5788294,0.4218303,-0.2457663,0.003186889,23.3478,5.527413
2.499998,0.6049039,0.4573714,-0.2457663,0.003356824,23.3478,5.776407
2.599998,0.6286636,0.4954926,-0.2457663,0.003442362,23.3478,6.003295
2.699998,0.6540169,0.5359378,-0.2457663,0.003600593,23.3478,6.245401
2.799998,0.6788971,0.5789828,-0.2457663,0.003764947,23.3478,6.48299
2.899998,0.707508,0.6244464,-0.2457663,0.003898212,23.3478,6.756203
2.999998,0.7266178,0.6723468,-0.2457663,0.003995311,23.3478,6.938688
3.099998,0.7513057,0.7227115,-0.2457663,0.004124628,23.3478,7.174441
3.199998,0.7765217,0.7755671,-0.2457663,0.0042848,23.3478,7.415236
3.299998,0.8008384,0.8308502,-0.2457663,0.004404369,23.3478,7.647443
3.399997,0.8305668,0.8886007,-0.2457663,0.004587427,23.3478,7.931328
3.499997,0.8517675,0.9487971,-0.2457663,0.004692087,23.3478,8.13378
3.599997,0.8748664,1.011481,-0.2457663,0.004818325,23.3478,8.354358
3.699997,0.9035146,1.076586,-0.2457663,0.004975628,23.3478,8.627929
3.799997,0.9287772,1.144118,-0.2457663,0.005127599,23.3478,8.869168
3.899997,0.9517905,1.214212,-0.2457663,0.005263494,23.3478,9.088929
3.999997,0.9778277,1.286675,-0.2457663,0.005396879,23.3478,9.337566
4.099997,0.9985274,1.36162,-0.2457663,0.005541728,23.3478,9.535234
4.199997,1.024778,1.438958,-0.2457663,0.005651125,23.3478,9.78591
4.299997,1.048845,1.518772,-0.2457663,0.005822484,23.3478,10.01573
4.399997,1.073698,1.601145,-0.2457663,0.005932063,23.3478,10.25306
4.499997,1.100049,1.68598,-0.2457663,0.006063194,23.3478,10.50469
4.599997,1.120239,1.773084,-0.2457663,0.006185784,23.3478,10.69749
4.699996,1.147479,1.862723,-0.2457663,0.00633626,23.3478,10.95762
4.799996,1.173029,1.954956,-0.2457663,0.006502619,23.3478,11.2016
4.899996,1.1989,2.049484,-0.2457663,0.006631549,23.3478,11.44865
4.999996,1.219087,2.146659,-0.2457663,0.006774621,23.3478,11.64143
5.099996,1.248019,2.245986,-0.2457663,0.006890691,23.3478,11.9177
5.199996,1.272898,2.34794,-0.2457663,0.007041961,23.3478,12.15528
5.299996,1.289691,2.452437,-0.2457663,0.00715983,23.3478,12.31564
5.399996,1.316461,2.559308,-0.2457663,0.007279005,23.3478,12.57128
5.499996,1.342052,2.668629,-0.2457663,0.0074558,23.3478,12.81566
5.599996,1.370624,2.780449,-0.2457663,0.007594026,23.3478,13.08849
5.699996,1.384224,2.894723,-0.2457663,0.007653848,23.3478,13.21837
5.799995,1.384224,3.009602,-0.2457663,0.007653848,23.3478,13.21837
5.899995,1.384224,3.12448,-0.2457663,0.007653848,23.3478,13.21837
5.999995,1.448259,3.244482,-0.2457663,0.007700019,23.3478,13.82985
6.099995,1.493512,3.36811,-0.2457663,0.008276276,23.3478,14.26198
6.199995,1.511616,3.494635,-0.2457663,0.00835737,23.3478,14.43487
6.299995,1.541967,3.623544,-0.2457663,0.008534312,23.3478,14.7247
6.399995,1.561892,3.755101,-0.2457663,0.008641721,23.3478,14.91497
6.499995,1.592531,3.88909,-0.2457663,0.008822843,23.3478,15.20755
6.599995,1.615051,4.025487,-0.2457663,0.008942141,23.3478,15.4226
6.699995,1.635549,4.164369,-0.2457663,0.009047629,23.3478,15.61834
6.799994,1.663526,4.305558,-0.2457663,0.009208701,23.3478,15.88551
6.899994,1.687988,4.449241,-0.2457663,0.009356265,23.3478,16.11909
6.999994,1.714273,4.595385,-0.2457663,0.009491279,23.3478,16.3701
7.099994,1.734665,4.744146,-0.2457663,0.009595018,23.3478,16.56483
7.199994,1.760848,4.895272,-0.2457663,0.009784683,23.3478,16.81486
7.299994,1.783958,5.048949,-0.2457663,0.009869496,23.3478,17.03555
7.399994,1.808793,5.205117,-0.2457663,0.01002226,23.3478,17.2727
7.499994,1.82912,5.363256,-0.2457663,0.01009859,23.3478,17.46681
7.599994,1.859873,5.523952,-0.2457663,0.01029588,23.3478,17.76048
7.699994,1.881726,5.687211,-0.2457663,0.0103984,23.3478,17.96916
7.799994,1.905788,5.852963,-0.2457663,0.01055512,23.3478,18.19894
7.899993,1.935453,6.021317,-0.2457663,0.01073602,23.3478,18.48221
7.999993,1.954025,6.19228,-0.2457663,0.01085074,23.3478,18.65956
8.099996,1.984985,6.365604,-0.2457663,0.01101713,23.3478,18.95521
8.199998,2.003596,6.541406,-0.2457663,0.01112564,23.3478,19.13293
8.3,2.034507,6.71946,-0.2457663,0.0112702,23.3478,19.42811
8.400002,2.056049,6.900043,-0.2457663,0.01140523,23.3478,19.63382
8.500005,2.074848,7.082944,-0.2457663,0.01148452,23.3478,19.81334
8.600007,2.104999,7.268306,-0.2457663,0.01169921,23.3478,20.10126
8.700009,2.133123,7.456036,-0.2457663,0.01181848,23.3478,20.36983
8.800012,2.151942,7.646566,-0.2457663,0.01191936,23.3478,20.54953
8.900014,2.180204,7.839481,-0.2457663,0.01210943,23.3478,20.81942
9.000016,2.201878,8.03439,-0.2457663,0.01212782,23.3478,21.02639
9.100019,2.22942,8.232094,-0.2457663,0.01234998,23.3478,21.28939
9.200021,2.253486,8.432464,-0.2457663,0.01249512,23.3478,21.5192
9.300023,2.278391,8.635221,-0.2457663,0.01262722,23.3478,21.75703
9.400025,2.305183,8.840397,-0.2457663,0.01278432,23.3478,22.01288
9.500028,2.324386,9.048181,-0.2457663,0.01288172,23.3478,22.19625
9.60003,2.351218,9.258226,-0.2457663,0.01306421,23.3478,22.45248
9.700032,2.37877,9.470879,-0.2457663,0.01318238,23.3478,22.71558
9.800035,2.403008,9.685981,-0.2457663,0.01333531,23.3478,22.94704
9.900037,2.42608,9.903597,-0.2457663,0.0134769,23.3478,23.16735
10.00004,2.452492,10.12354,-0.2457663,0.01359494,23.3478,23.41958
10.10004,2.474778,10.34593,-0.2457663,0.01371915,23.3478,23.63239
10.20004,2.494286,10.57065,-0.2457663,0.01382143,23.3478,23.81867
10.30005,2.521104,10.79791,-0.2457663,0.01397478,23.3478,24.07477
10.40005,2.549683,11.02766,-0.2457663,0.01415238,23.3478,24.34768
10.50005,2.575595,11.25994,-0.2457663,0.01428252,23.3478,24.59512
10.60005,2.598382,11.49455,-0.2457663,0.01441104,23.3478,24.81272
10.70006,2.624705,11.73157,-0.2457663,0.01456683,23.3478,25.06408
10.80006,2.64823,11.97117,-0.2457663,0.01467967,23.3478,25.28873
10.90006,2.669955,12.21314,-0.2457663,0.01482218,23.3478,25.49619
11.00006,2.697745,12.45775,-0.2457663,0.01498219,23.3478,25.76157
11.10006,2.721536,12.70479,-0.2457663,0.01511762,23.3478,25.98875
11.20007,2.747586,12.95424,-0.2457663,0.01524306,23.3478,26.23751
11.30007,2.770642,13.20618,-0.2457663,0.01537323,23.3478,26.45768
11.40007,2.793679,13.46048,-0.2457663,0.01550783,23.3478,26.67767
11.50007,2.819387,13.7173,-0.2457663,0.01563589,23.3478,26.92316
11.60008,2.842187,13.97642,-0.2457663,0.01576373,23.3478,27.14088
11.70008,2.866677,14.23816,-0.2457663,0.01591159,23.3478,27.37475
11.80008,2.889531,14.50239,-0.2457663,0.01602524,23.3478,27.59299
11.90008,2.918863,14.76897,-0.2457663,0.01620113,23.3478,27.87309
12.00008,2.939839,15.0382,-0.2457663,0.01634503,23.3478,28.0734
12.10009,2.96578,15.30969,-0.2457663,0.01645106,23.3478,28.32111
12.20009,2.989731,15.58374,-0.2457663,0.016596,23.3478,28.54982
12.30009,3.014942,15.86018,-0.2457663,0.01672008,23.3478,28.79058
12.40009,3.041465,16.13919,-0.2457663,0.01688698,23.3478,29.04385
12.5001,3.062676,16.42061,-0.2457663,0.01702642,23.3478,29.2464
12.6001,3.086111,16.70439,-0.2457663,0.01711678,23.3478,29.47019
12.7001,3.115043,16.99071,-0.2457663,0.01727862,23.3478,29.74647
12.8001,3.137033,17.27961,-0.2457663,0.01744229,23.3478,29.95646
12.90011,3.159663,17.57076,-0.2457663,0.01754505,23.3478,30.17256
13.00011,3.186953,17.86449,-0.2457663,0.01771484,23.3478,30.43316
13.10011,3.214456,18.16072,-0.2457663,0.01784617,23.3478,30.69579
13.20011,3.235353,18.45938,-0.2457663,0.01796415,23.3478,30.89534
13.30011,3.259691,18.76048,-0.2457663,0.0181207,23.3478,31.12775
13.40012,3.287722,19.06401,-0.2457663,0.01825203,23.3478,31.39543
13.50012,3.312408,19.37,-0.2457663,0.01836902,23.3478,31.63117
13.60012,3.33461,19.67847,-0.2457663,0.01853116,23.3478,31.84318
13.70012,3.361333,19.98937,-0.2457663,0.01864831,23.3478,32.09836
13.80013,3.380164,20.30271,-0.2457663,0.01875055,23.3478,32.27819
13.90013,3.407937,20.61848,-0.2457663,0.01891241,23.3478,32.5434
14.00013,3.434764,20.93679,-0.2457663,0.01905995,23.3478,32.79958
14.10013,3.45597,21.25748,-0.2457663,0.0192137,23.3478,33.00208
14.20014,3.480274,21.58061,-0.2457663,0.01932336,23.3478,33.23417
14.30014,3.503364,21.90625,-0.2457663,0.01944041,23.3478,33.45466
14.40014,3.532577,22.23426,-0.2457663,0.01961283,23.3478,33.73363
14.50014,3.553925,22.56482,-0.2457663,0.01975533,23.3478,33.93748
14.60014,3.577744,22.89775,-0.2457663,0.0198508,23.3478,34.16494
14.70015,3.602839,23.23325,-0.2457663,0.02000829,23.3478,34.40458
14.80015,3.62894,23.57117,-0.2457663,0.0201744,23.3478,34.65382
14.90015,3.656314,23.91156,-0.2457663,0.02030377,23.3478,34.91522
15.00015,3.677409,24.25447,-0.2457663,0.02044216,23.3478,35.11667
15.10016,3.704022,24.59979,-0.2457663,0.02058614,23.3478,35.37081
15.20016,3.728199,24.94764,-0.2457663,0.02070328,23.3478,35.60168
15.30016,3.74989,25.29795,-0.2457663,0.02081429,23.3478,35.80881
15.40016,3.773591,25.65058,-0.2457663,0.02095178,23.3478,36.03514
15.50016,3.800412,26.00565,-0.2457663,0.02113195,23.3478,36.29126
15.60017,3.82355,26.36315,-0.2457663,0.02121929,23.3478,36.51221
15.70017,3.8494,26.72306,-0.2457663,0.02137012,23.3478,36.75906
15.80017,3.874801,27.08564,-0.2457663,0.02154361,23.3478,37.00162
15.90017,3.897652,27.45067,-0.2457663,0.02163939,23.3478,37.21984
16.00018,3.927332,27.81798,-0.2457663,0.02178334,23.3478,37.50326
16.10018,3.944691,28.18783,-0.2457663,0.02189166,23.3478,37.66903
16.20018,3.975101,28.56013,-0.2457663,0.02208147,23.3478,37.95942
16.30018,4.000741,28.93502,-0.2457663,0.02221008,23.3478,38.20426
16.40018,4.024167,29.3124,-0.2457663,0.02236104,23.3478,38.42796
16.50019,4.049143,29.69207,-0.2457663,0.02248953,23.3478,38.66647
16.60019,4.072661,30.07427,-0.2457663,0.02260804,23.3478,38.89105
16.70019,4.094599,30.45883,-0.2457663,0.02274511,23.3478,39.10054
16.80019,4.119203,30.84573,-0.2457663,0.02286875,23.3478,39.33549
16.9002,4.143481,31.23534,-0.2457663,0.02299494,23.3478,39.56733
17.0002,4.169088,31.62729,-0.2457663,0.02315407,23.3478,39.81186
17.1002,4.193916,32.02182,-0.2457663,0.02331861,23.3478,40.04895
17.2002,4.22219,32.41874,-0.2457663,0.02344743,23.3478,40.31895
17.30021,4.243289,32.81812,-0.2457663,0.02359453,23.3478,40.52042
17.40021,4.267189,33.21991,-0.2457663,0.02372464,23.3478,40.74865
17.50021,4.295362,33.62419,-0.2457663,0.02386367,23.3478,41.01768
17.60021,4.32037,34.03094,-0.2457663,0.02399647,23.3478,41.2565
17.70021,4.342827,34.44014,-0.2457663,0.02411637,23.3478,41.47094
17.80022,4.36941,34.85179,-0.2457663,0.02426867,23.3478,41.72479
17.90022,4.392721,35.26598,-0.2457663,0.02438817,23.3478,41.94739
18.00022,4.413034,35.68257,-0.2457663,0.02451468,23.3478,42.14137
18.10022,4.440598,36.10154,-0.2457663,0.024687,23.3478,42.40459
18.20023,4.46222,36.52321,-0.2457663,0.02479839,23.3478,42.61106
18.30023,4.492329,36.94721,-0.2457663,0.02496093,23.3478,42.89858
18.40023,4.511809,37.37364,-0.2457663,0.02503843,23.3478,43.08461
18.50023,4.540163,37.80264,-0.2457663,0.02523618,23.3478,43.35536
18.60023,4.566199,38.23409,-0.2457663,0.02535827,23.3478,43.60399
18.70024,4.590865,38.66788,-0.2457663,0.02548253,23.3478,43.83953
18.80024,4.609157,39.10413,-0.2457663,0.0255927,23.3478,44.01421
18.90024,4.631413,39.54251,-0.2457663,0.02569119,23.3478,44.22674
19.00024,4.662489,39.98351,-0.2457663,0.02588788,23.3478,44.52349
19.10025,4.686825,40.42722,-0.2457663,0.02603553,23.3478,44.75588
19.20025,4.711464,40.87329,-0.2457663,0.02615321,23.3478,44.99117
19.30025,4.737255,41.32173,-0.2457663,0.0263057,23.3478,45.23745
19.40025,4.756196,41.77267,-0.2457663,0.02640574,23.3478,45.41833
19.50026,4.783645,42.22605,-0.2457663,0.02660138,23.3478,45.68045
19.60026,4.807673,42.68194,-0.2457663,0.02671026,23.3478,45.90989
19.70026,4.831151,43.14035,-0.2457663,0.02682836,23.3478,46.13409
19.80026,4.856032,43.60115,-0.2457663,0.02697165,23.3478,46.37169
19.90026,4.885333,44.06436,-0.2457663,0.02712169,23.3478,46.65149
20.00027,4.909522,44.52998,-0.2457663,0.02726549,23.3478,46.88248
20.10027,4.92904,44.99825,-0.2457663,0.02736963,23.3478,47.06887
20.20027,4.953972,45.46886,-0.2457663,0.02750209,23.3478,47.30695
20.30027,4.981613,45.9418,-0.2457663,0.0276597,23.3478,47.5709
20.40028,5.008382,46.41727,-0.2457663,0.02780875,23.3478,47.82653
20.50028,5.030674,46.89521,-0.2457663,0.02794903,23.3478,48.0394
20.60028,5.056412,47.37564,-0.2457663,0.02808857,23.3478,48.28518
20.70028,5.075775,47.85857,-0.2457663,0.02818518,23.3478,48.47008
20.80029,5.102924,48.34374,-0.2457663,0.02834023,23.3478,48.72934
20.90029,5.131214,48.83157,-0.2457663,0.02850462,23.3478,48.99948
21.00029,5.150704,49.32182,-0.2457663,0.02860243,23.3478,49.1856
21.10029,5.178251,49.81448,-0.2457663,0.02875766,23.3478,49.44865
21.20029,5.204728,50.30955,-0.2457663,0.02890973,23.3478,49.70149
21.3003,5.224778,50.80717,-0.2457663,0.0290135,23.3478,49.89296
21.4003,5.25189,51.30712,-0.2457663,0.02915836,23.3478,50.15185
21.5003,5.275556,51.80963,-0.2457663,0.02930976,23.3478,50.37784
21.6003,5.300589,52.31466,-0.2457663,0.02947184,23.3478,50.61689
21.70031,5.326902,52.82188,-0.2457663,0.02958573,23.3478,50.86816
21.80031,5.3492,53.33163,-0.2457663,0.02969488,23.3478,51.0811
21.90031,5.368544,53.84377,-0.2457663,0.0298076,23.3478,51.26582
22.00031,5.398555,54.35841,-0.2457663,0.02998732,23.3478,51.5524
22.10032,5.422312,54.87574,-0.2457663,0.03015462,23.3478,51.77926
22.20032,5.445346,55.39556,-0.2457663,0.03025323,23.3478,51.99922
22.30032,5.473675,55.91775,-0.2457663,0.03042633,23.3478,52.26974
22.40032,5.497223,56.44244,-0.2457663,0.03056763,23.3478,52.49461
22.50032,5.524658,56.96957,-0.2457663,0.03068787,23.3478,52.75659
22.60033,5.548703,57.4992,-0.2457663,0.03081354,23.3478,52.98621
22.70033,5.573965,58.03129,-0.2457663,0.03096844,23.3478,53.22744
22.80033,5.593464,58.56582,-0.2457663,0.03106608,23.3478,53.41365
22.90033,5.620959,59.10278,-0.2457663,0.03122122,23.3478,53.6762
23.00034,5.640575,59.64214,-0.2457663,0.03132442,23.3478,53.86352
23.10034,5.667014,60.18387,-0.2457663,0.03147208,23.3478,54.11599
23.20034,5.693326,60.72816,-0.2457663,0.03163097,23.3478,54.36726
23.30034,5.718165,61.275,-0.2457663,0.03179772,23.3478,54.60445
23.40034,5.739917,61.82417,-0.2457663,0.03189182,23.3478,54.81217
23.50035,5.767066,62.37585,-0.2457663,0.03207009,23.3478,55.07142
23.60035,5.793371,62.93004,-0.2457663,0.03217602,23.3478,55.32262
23.70035,5.812437,63.48662,-0.2457663,0.0322828,23.3478,55.50468
23.80035,5.840746,64.04564,-0.2457663,0.03248067,23.3478,55.77501
23.90036,5.868075,64.60728,-0.2457663,0.03259751,23.3478,56.03599
24.00036,5.888881,65.17122,-0.2457663,0.03274924,23.3478,56.23467
24.10036,5.916133,65.73749,-0.2457663,0.03285958,23.3478,56.49491
24.20036,5.940944,66.30624,-0.2457663,0.03300374,23.3478,56.73184
24.30037,5.963633,66.87759,-0.2457663,0.03316321,23.3478,56.9485
24.40037,5.990401,67.45144,-0.2457663,0.03327027,23.3478,57.20411
24.50037,6.009326,68.02766,-0.2457663,0.03337187,23.3478,57.38483
24.60037,6.037553,68.60633,-0.2457663,0.03357539,23.3478,57.65438
24.70037,6.06501,69.18729,-0.2457663,0.03369496,23.3478,57.91657
24.80038,6.083644,69.77094,-0.2457663,0.03380482,23.3478,58.09452
24.90038,6.110383,70.35699,-0.2457663,0.03397284,23.3478,58.34986
25.00038,6.133505,70.9456,-0.2457663,0.03407933,23.3478,58.57066
25.10038,6.163354,71.53668,-0.2457663,0.03425709,23.3478,58.85569
25.20039,6.181854,72.13022,-0.2457663,0.03433626,23.3478,59.03235
25.30039,6.211188,72.726,-0.2457663,0.03449432,23.3478,59.31247
25.40039,6.236517,73.32439,-0.2457663,0.03464566,23.3478,59.55435
25.50039,6.261667,73.92513,-0.2457663,0.03478323,23.3478,59.79451
25.6004,6.28142,74.52852,-0.2457663,0.03489218,23.3478,59.98314
25.7004,6.307748,75.1343,-0.2457663,0.03507909,23.3478,60.23455
25.8004,6.335758,75.7426,-0.2457663,0.03520876,23.3478,60.50203
25.9004,6.340533,76.35301,-0.2457663,0.0352439,23.3478,60.54763
26.0004,6.381288,76.96584,-0.2457663,0.03548683,23.3478,60.93681
26.10041,6.401797,77.5814,-0.2457663,0.03555471,23.3478,61.13266
26.20041,6.431307,78.19925,-0.2457663,0.03572445,23.3478,61.41446
26.30041,6.454947,78.81989,-0.2457663,0.03589825,23.3478,61.64021
26.40041,6.48206,79.44287,-0.2457663,0.03600403,23.3478,61.89911
26.50042,6.501501,80.06833,-0.2457663,0.03611401,23.3478,62.08476
26.60042,6.530038,80.69624,-0.2457663,0.03630606,23.3478,62.35727
26.70042,6.555511,81.32641,-0.2457663,0.03642498,23.3478,62.60051
26.80042,6.575174,81.95926,-0.2457663,0.03652417,23.3478,62.78828
26.90042,6.600473,82.59457,-0.2457663,0.03667029,23.3478,63.02988
27.00043,6.625216,83.23219,-0.2457663,0.03677485,23.3478,63.26616
27.10043,6.65252,83.87236,-0.2457663,0.03696282,23.3478,63.52688
27.20043,6.674116,84.51487,-0.2457663,0.03705632,23.3478,63.73311
27.30043,6.701494,85.15988,-0.2457663,0.03723193,23.3478,63.99455
27.40044,6.727686,85.80751,-0.2457663,0.03737811,23.3478,64.24467
27.50044,6.746197,86.4576,-0.2457663,0.03751208,23.3478,64.42143
27.60044,6.773121,87.11002,-0.2457663,0.03763695,23.3478,64.67854
27.70044,6.798416,87.76497,-0.2457663,0.03780939,23.3478,64.92009
27.80045,6.825196,88.42245,-0.2457663,0.03794583,23.3478,65.17582
27.90045,6.85182,89.08244,-0.2457663,0.03806524,23.3478,65.43006
28.00045,6.876011,89.74463,-0.2457663,0.03816715,23.3478,65.66107
28.10045,6.898647,90.40916,-0.2457663,0.03831442,23.3478,65.87722
28.20045,6.92353,91.07632,-0.2457663,0.03846823,23.3478,66.11484
28.30046,6.949817,91.7458,-0.2457663,0.03860866,23.3478,66.36586
28.40046,6.967252,92.41795,-0.2457663,0.03871037,23.3478,66.53235
28.50046,6.9981,93.09234,-0.2457663,0.03888119,23.3478,66.82693
28.60046,7.017294,93.76937,-0.2457663,0.03898212,23.3478,67.01022
28.70047,7.041602,94.4489,-0.2457663,0.03915266,23.3478,67.24234
28.80047,7.066568,95.13087,-0.2457663,0.03926773,23.3478,67.48075
28.90047,7.091533,95.81533,-0.2457663,0.03942628,23.3478,67.71915
29.00047,7.115472,96.50213,-0.2457663,0.03954181,23.3478,67.94775
29.10048,7.143921,97.19129,-0.2457663,0.03968804,23.3478,68.21942
29.20048,7.168269,97.88314,-0.2457663,0.03986077,23.3478,68.45192
29.30048,7.19404,98.57734,-0.2457663,0.03997814,23.3478,68.69802
29.40048,7.220479,99.27401,-0.2457663,0.04011547,23.3478,68.9505
29.50048,7.243173,99.97323,-0.2457663,0.04026054,23.3478,69.16721
29.60049,7.2634,100.675,-0.2457663,0.0403522,23.3478,69.36036
29.70049,7.294184,101.379,-0.2457663,0.04053593,23.3478,69.65433
29.80049,7.313111,102.0857,-0.2457663,0.04063493,23.3478,69.83506
29.90049,7.339796,102.7946,-0.2457663,0.04080157,23.3478,70.08988
30.0005,7.365652,103.5056,-0.2457663,0.04091081,23.3478,70.33679
30.1005,7.391816,104.2193,-0.2457663,0.04107149,23.3478,70.58664
30.2005,7.408475,104.9356,-0.2457663,0.04116491,23.3478,70.74572
